Temperature,DSC_an,DSC_anele,DSC_caan,DSC_ca,DSC_caele
73,-0.123651647852152,-0.518708484808143,-0.17922337286623,-0.108744754361039,-0.30836000165679
73.1,-0.123605795687781,-0.519416582739667,-0.179361877509823,-0.108666290921275,-0.308654891074925
73.2,-0.123554141670302,-0.520107789990197,-0.17952379821629,-0.108594635095782,-0.308932431726517
73.3,-0.123485083724258,-0.520759772669909,-0.179752253922156,-0.108540532014082,-0.309177926340617
73.4,-0.123374703580826,-0.52137881125266,-0.180205545497688,-0.108503734241806,-0.309385158773507
73.5,-0.12321886414141,-0.52198236625019,-0.180801481721604,-0.108473998454199,-0.30957065873454
73.6,-0.123042723383606,-0.522586764990147,-0.181355512379949,-0.108447749744028,-0.309754438124203
73.7,-0.122871515652911,-0.523208334800177,-0.181693159656498,-0.108421414661095,-0.309956508842982
73.8,-0.122730475294823,-0.523861956052083,-0.181893471390887,-0.108391419755201,-0.310197400116235
73.9,-0.122626417665963,-0.524544265797364,-0.182050151527025,-0.108356633139908,-0.310500055966902
74,-0.122538117632006,-0.525245847158304,-0.182195062927266,-0.108319318503003,-0.310849110676857
74.1,-0.122456964099931,-0.525958336576161,-0.182357022293587,-0.108280532786849,-0.3112178513749
74.2,-0.122374484395119,-0.526673370492192,-0.182512002988381,-0.108241329464972,-0.311579565189832
74.3,-0.122282205842952,-0.527386134805312,-0.182667144156256,-0.108202762010897,-0.311908272919
74.4,-0.122174346279412,-0.528116098987342,-0.182849293598994,-0.108162840689828,-0.312211776618202
74.5,-0.122055055955071,-0.528853842945614,-0.183102312456331,-0.108120204686654,-0.312504343472428
74.6,-0.121930156222648,-0.529582358478466,-0.183563426971252,-0.108078481897205,-0.312789729699887
74.7,-0.121805452406846,-0.530284637384237,-0.184094362691469,-0.108041321394637,-0.313071691518788
74.8,-0.12168674983237,-0.530943955577025,-0.184492329614178,-0.108012372252104,-0.313353900499602
74.9,-0.121571166628385,-0.531558048861318,-0.184602839333788,-0.107991671392977,-0.313634932715781
75,-0.121451208441835,-0.53214547608523,-0.184631340863017,-0.107974588006982,-0.313913087618118
75.1,-0.121335392599106,-0.532726398195289,-0.184649903441345,-0.107959797893391,-0.314188774634401
75.2,-0.121232511190079,-0.533320976138024,-0.184679658472672,-0.107946015840281,-0.314462403192416
75.3,-0.121151356304634,-0.533950242517012,-0.18480917460925,-0.107931956635732,-0.314734347327566
75.4,-0.12109637103468,-0.534627644228096,-0.185249358768665,-0.107918053022669,-0.315002726355261
75.5,-0.121057480742148,-0.535328415975094,-0.185828576188005,-0.107905699695589,-0.315267928916186
75.6,-0.121024246240939,-0.536021993173157,-0.186336131147622,-0.107893427526744,-0.315532266921688
75.7,-0.120986327497331,-0.536677811237434,-0.186613771634454,-0.107879726440034,-0.315798052283114
75.8,-0.120933384477601,-0.537265060382268,-0.186815278961307,-0.107863086359356,-0.316067683425012
75.9,-0.120840512060144,-0.537772709723137,-0.186980462440314,-0.107839933920866,-0.316350386024132
76,-0.120687195008241,-0.538238180488769,-0.187115888475115,-0.107808304341422,-0.316642345961068
76.1,-0.120498984164945,-0.538704981495359,-0.187224471917275,-0.107772429143532,-0.316930963412002
76.2,-0.120302604492013,-0.539216621559099,-0.187301829020265,-0.107736643398119,-0.317203638553117
76.3,-0.120124780951199,-0.53981767799886,-0.187370898102663,-0.107705282176105,-0.317447751022686
76.4,-0.119964085590294,-0.540540156173432,-0.187457962591253,-0.107677809263851,-0.317653268350505
76.5,-0.119785092873232,-0.541349492581143,-0.187613238744657,-0.107648548727947,-0.317833135252081
76.6,-0.11961432583503,-0.542199638921406,-0.18789149417037,-0.107621420977846,-0.318007835461187
76.7,-0.119480709978846,-0.543044546893632,-0.188195024135708,-0.107600638819272,-0.318197852711593
76.8,-0.119413170807837,-0.543841965595386,-0.188414781118994,-0.107590415057952,-0.318423715709089
76.9,-0.119415391802672,-0.544618873684602,-0.188469506462776,-0.107606286900175,-0.318713069659792
77,-0.11943510693547,-0.54539045456123,-0.188481151910855,-0.107663598670288,-0.319057011292539
77.1,-0.119461328730374,-0.546154349474858,-0.188488562848811,-0.107739233785345,-0.319425838595566
77.2,-0.119485538383893,-0.546908199675079,-0.188500776215461,-0.107808785525474,-0.319789849557109
77.3,-0.119499217092537,-0.547650611671612,-0.188607403599678,-0.107847847170802,-0.320119367000554
77.4,-0.11946335582827,-0.548394541477327,-0.189083394597913,-0.107837581162621,-0.320417710244604
77.5,-0.119315723157543,-0.549134422065393,-0.18970684991955,-0.107788267396578,-0.320704909769692
77.6,-0.119098355453148,-0.549856718964158,-0.190196769224209,-0.107716122966046,-0.320981070702504
77.7,-0.118858407155031,-0.550547897701967,-0.1903182410707,-0.107637095459025,-0.321246298169724
77.8,-0.118643032703143,-0.551193581954539,-0.190330793378567,-0.107567132463519,-0.321500697184449
77.9,-0.118476091884612,-0.551774163708713,-0.190338050341729,-0.107514803480413,-0.321732862678285
78,-0.11831562963036,-0.552313487650829,-0.190348858854763,-0.10746643307055,-0.32194372009235
78.1,-0.1181609623294,-0.552848004408871,-0.190409203203963,-0.10742044767577,-0.322151627493444
78.2,-0.118015081041498,-0.553414164610824,-0.190753323689457,-0.107376449495128,-0.322374942948365
78.3,-0.117880976826422,-0.554049659497973,-0.191250191226383,-0.107334040727678,-0.322632024523914
78.4,-0.117760492310728,-0.554800089719893,-0.191691776309439,-0.107291331058085,-0.322958765007441
78.5,-0.117650311540527,-0.555627655055233,-0.191872256974572,-0.107245476089815,-0.323352555291856
78.6,-0.117547590678599,-0.556469233130666,-0.19188763650492,-0.107200976144777,-0.323769160599805
78.7,-0.11744965889945,-0.557261701572863,-0.191895462981295,-0.107162822831833,-0.324164322754961
78.8,-0.117353845377588,-0.557943344538886,-0.191903622210664,-0.107136007759848,-0.324493783580997
78.9,-0.117258921592068,-0.558522098735168,-0.19192,-0.107122904728716,-0.32474552682904
79,-0.117167751751062,-0.559045113576182,-0.192037473345964,-0.107115479784041,-0.32495782244227
79.1,-0.117079201513278,-0.559546542023429,-0.192287407669207,-0.107110235631008,-0.32515363815747
79.2,-0.116991729569623,-0.56006053703841,-0.192585421412683,-0.107104379527777,-0.325355856489082
79.3,-0.116903794611006,-0.560620680202277,-0.192847133019346,-0.10709511873251,-0.325587359951545
79.4,-0.116814850220234,-0.561226041882196,-0.193028937211498,-0.107068670212061,-0.325872235449342
79.5,-0.116727152979285,-0.561857808422346,-0.193183014398778,-0.106991818197482,-0.326202849313294
79.6,-0.116639532274133,-0.562505282665797,-0.193338056509816,-0.106886531379951,-0.326549295310562
79.7,-0.116550445954088,-0.563157767455622,-0.193521754236677,-0.106779976410645,-0.326881587024751
79.8,-0.116458351868458,-0.563804447995482,-0.193766592182525,-0.106699319940741,-0.327169738039467
79.9,-0.116362142330846,-0.564434159281062,-0.194074593160643,-0.106660692199922,-0.327397756782232
80,-0.116262750311208,-0.565057531832125,-0.194410799490996,-0.106632323585646,-0.327589163427767
80.1,-0.116160359528308,-0.56569261485957,-0.194739681103935,-0.106609033848585,-0.327767756319171
80.2,-0.116054997640508,-0.566357457574295,-0.1950358354904,-0.106590247698145,-0.327957201494153
80.3,-0.115946692306172,-0.567070672675677,-0.195323238055143,-0.106575389843739,-0.32818116499042
80.4,-0.115831508049155,-0.567880069794522,-0.195602918764949,-0.106563404518057,-0.328466350871092
80.5,-0.115698269211937,-0.568765555175595,-0.195871123230823,-0.10655211335703,-0.328812760641537
80.6,-0.115560114273781,-0.569667924882944,-0.196121907243727,-0.106542190722589,-0.329193350406546
80.7,-0.115432780129648,-0.570527974980616,-0.196339952362506,-0.106534647336545,-0.329580777717472
80.8,-0.115332003674502,-0.571286678477332,-0.196547363931167,-0.106530493920705,-0.329947700125667
80.9,-0.115265453293105,-0.571928915182344,-0.196774245894427,-0.10653165587448,-0.33028124653958
81,-0.115205886205672,-0.572503596997063,-0.197052627200837,-0.106542725193456,-0.330601389945248
81.1,-0.115153761943747,-0.573058365436769,-0.197448046924111,-0.106562740109838,-0.330916305523857
81.2,-0.115114262879874,-0.573640862016739,-0.197916851857873,-0.106589990605762,-0.331233648276758
81.3,-0.115092571386595,-0.574298530158703,-0.198372104291225,-0.106622766663366,-0.331561073205306
81.4,-0.115112177668442,-0.575024983645588,-0.198727096516932,-0.106668226097645,-0.331906856712244
81.5,-0.115245493514237,-0.575800484799105,-0.198985484552516,-0.106764769709957,-0.332269689990607
81.6,-0.115447793967743,-0.576636202264866,-0.199205565097925,-0.106895138535904,-0.332638294385693
81.7,-0.115659059278204,-0.577543304688489,-0.199404514220624,-0.107033520951273,-0.333001216812219
81.8,-0.115819269694866,-0.578533432924273,-0.199599507988081,-0.107154105331853,-0.333347004184898
81.9,-0.115888680706034,-0.579853546814064,-0.199804299092729,-0.107239514174872,-0.333678013072746
82,-0.115938668282137,-0.581489901991121,-0.200011781413568,-0.107321363787068,-0.334011372059048
82.1,-0.115980463294806,-0.583128311347591,-0.200211168188483,-0.107397790300891,-0.334332940368241
82.2,-0.116011153921168,-0.584454587775622,-0.200392103112279,-0.107458867128161,-0.334627433258045
82.3,-0.11602782833835,-0.585154644143562,-0.200544591260435,-0.107494667680698,-0.33487956598618
82.4,-0.115995747444759,-0.585394111031745,-0.200669938176491,-0.107476713898806,-0.335088220265748
82.5,-0.11575822580836,-0.585552578778771,-0.200782699628009,-0.107303547842808,-0.335277699690568
82.6,-0.115362882938386,-0.585674601700673,-0.20089818554848,-0.107026112835564,-0.335447675361204
82.7,-0.114890783004296,-0.585804734113485,-0.201031750036764,-0.106722057502974,-0.335596673533806
82.8,-0.114422990175546,-0.585987530333239,-0.20119917054779,-0.106469030470938,-0.335723220464523
82.9,-0.114019357178333,-0.586261735497836,-0.201388684829433,-0.106329473046734,-0.335823738985263
83,-0.113603090304242,-0.586610481471351,-0.201577284293702,-0.106238094186211,-0.335900224676595
83.1,-0.113173297234388,-0.586994371448053,-0.201741960352606,-0.106164576823084,-0.335967146548198
83.2,-0.112750451121769,-0.587374007647805,-0.20187933773442,-0.106096428953003,-0.336039337032912
83.3,-0.112355025119387,-0.587709992290474,-0.202012111212078,-0.106021158571623,-0.336131628563576
83.4,-0.112002943002952,-0.587985071939864,-0.202128082456061,-0.105926358830281,-0.336263159848473
83.5,-0.111674979989376,-0.588227459391921,-0.202213890371201,-0.105808726072988,-0.336443564664524
83.6,-0.111365297187196,-0.5884635172899,-0.202260226868633,-0.10567957394607,-0.33665731677233
83.7,-0.111073315983139,-0.58871959406098,-0.202285374166032,-0.105551431593947,-0.336888058495927
83.8,-0.110798457763936,-0.589022038132344,-0.202303910940125,-0.105436828161039,-0.337119432159349
83.9,-0.110540072212157,-0.589423664072552,-0.202328174717616,-0.105346750850058,-0.337349558702451
84,-0.11029664949903,-0.589926067065414,-0.202374340119779,-0.105273623532009,-0.337600623737044
84.1,-0.110066489835899,-0.590465031045865,-0.202555926751482,-0.105209323019483,-0.337859447499867
84.2,-0.109847959871392,-0.590976212621818,-0.202851964715937,-0.105148029813664,-0.338110874160492
84.3,-0.109639426254135,-0.591395268401182,-0.203168783028698,-0.105083924415734,-0.338339747888495
84.4,-0.10943997658647,-0.591711528331315,-0.203412710705323,-0.105009854261922,-0.33853382337778
84.5,-0.10925327554589,-0.591983147788085,-0.203537330058076,-0.104913915943634,-0.338701056698136
84.6,-0.109075993612421,-0.592229880046809,-0.203621931002564,-0.104809422403882,-0.338857020071456
84.7,-0.1089030826243,-0.592471231548157,-0.20369516541173,-0.104714898111516,-0.339017227744
84.8,-0.108729494419764,-0.592726708732803,-0.203782112924384,-0.104648867535388,-0.339197193962031
84.9,-0.108550981538539,-0.593005475679969,-0.203913303901073,-0.104626469992763,-0.339412368981263
85,-0.108371747571048,-0.593294707139799,-0.204133194638368,-0.104619606657187,-0.33966354091936
85.1,-0.108192462138188,-0.59358437018019,-0.204396458782095,-0.10461559663887,-0.339936079730367
85.2,-0.108011977735708,-0.593864487237556,-0.204641451188715,-0.104611976077758,-0.340214869124947
85.3,-0.107829146859355,-0.594125080748312,-0.204806734850245,-0.104606281113799,-0.340484792813759
85.4,-0.107641719821524,-0.594349557298908,-0.20490740036927,-0.104592492236871,-0.34073892215619
85.5,-0.107440124077318,-0.594541385556047,-0.204989346911017,-0.104527964972036,-0.340993181550554
85.6,-0.107232174968264,-0.594728932353572,-0.205057138297891,-0.104422494342093,-0.341244016906417
85.7,-0.107030154914539,-0.594940714418632,-0.205115338352299,-0.104303801518684,-0.341486019676574
85.8,-0.10684634633632,-0.595205248478376,-0.205163414953256,-0.104199607673451,-0.341713781313816
85.9,-0.106693019027188,-0.595607681376609,-0.205196666866756,-0.104134718542288,-0.341921106885711
86,-0.106573228849818,-0.596183430312161,-0.205227015444652,-0.104083652113329,-0.342107502089196
86.1,-0.106470889900997,-0.596827674557011,-0.205267178224607,-0.104036859727866,-0.342283936379306
86.2,-0.10636770181512,-0.597434366743932,-0.205332678726926,-0.103999214951522,-0.342461970175736
86.3,-0.106245364226582,-0.597897459505701,-0.205598487790024,-0.103975591349922,-0.342653163898181
86.4,-0.106081932505509,-0.598196527607215,-0.206033255094775,-0.10397,-0.342868022176258
86.5,-0.10582467810015,-0.598438135036022,-0.206455455057472,-0.10397,-0.343104991219904
86.6,-0.105501945811523,-0.598647821639991,-0.206683562094412,-0.10397,-0.343354944899333
86.7,-0.105165974346005,-0.598849716222548,-0.206676170038005,-0.10397,-0.343608647975487
86.8,-0.104869002409974,-0.599067947587118,-0.206633272814943,-0.10397,-0.343856865209307
86.9,-0.104659894868625,-0.599310351581031,-0.206581184510032,-0.103966576660841,-0.344092990194219
87,-0.104513184747157,-0.599558763493525,-0.206540559239787,-0.103897298097915,-0.344323178164116
87.1,-0.104393667200721,-0.599810387756461,-0.206540712463611,-0.103769653134568,-0.344550517822866
87.2,-0.104280711871023,-0.600062745398934,-0.206717083420718,-0.10362440952614,-0.344777322060634
87.3,-0.10415368839977,-0.60031335745004,-0.207041135503035,-0.103502335027972,-0.345005903767582
87.4,-0.103991392672957,-0.600566938687407,-0.207423141683754,-0.103441899116567,-0.345240624735354
87.5,-0.103774426909524,-0.600828654795138,-0.207773374936063,-0.10341579623924,-0.345486889599879
87.6,-0.103519682318029,-0.601087987484957,-0.208059749498019,-0.103398176317013,-0.345735214711132
87.7,-0.103252387617452,-0.601334173459543,-0.208355946754892,-0.103382635362234,-0.345974787919977
87.8,-0.10299777152677,-0.601556449421577,-0.208637660662051,-0.103362769387251,-0.346194797077278
87.9,-0.102779818319198,-0.601742682607543,-0.208875978458184,-0.10333097420411,-0.346386668173723
88,-0.102588236294186,-0.601898017098027,-0.20904538088179,-0.103255417243456,-0.346557443114602
88.1,-0.102409530739206,-0.602044277323914,-0.209176593137031,-0.10314705818226,-0.346715695055067
88.2,-0.102238746933357,-0.602203488940014,-0.209287190124469,-0.103036542648485,-0.34686932747581
88.3,-0.102070930155738,-0.602397677601138,-0.209380492327116,-0.102954516270092,-0.34702624385752
88.4,-0.101901390188475,-0.602669215074027,-0.209459820227985,-0.102930834578683,-0.347190480310871
88.5,-0.101733096898737,-0.603038352026616,-0.209522773219734,-0.10295716250793,-0.347350610154084
88.6,-0.101567619474966,-0.60345164907185,-0.209569076714807,-0.103007200284675,-0.347511393761635
88.7,-0.101403819518651,-0.603854112903407,-0.209612276593951,-0.103062919663092,-0.34768015674186
88.8,-0.101240558631278,-0.604190750214967,-0.209666104360785,-0.103106292397355,-0.347864224703093
88.9,-0.101076946752148,-0.604434827333276,-0.209747704935726,-0.103117859198775,-0.348074284953868
89,-0.100918606713429,-0.604634407692196,-0.209917150942475,-0.103035570108506,-0.348325404431281
89.1,-0.100763634080305,-0.604813714763462,-0.210148927187878,-0.10287179883845,-0.348600711786531
89.2,-0.100605730662816,-0.604995390773761,-0.210386308640592,-0.1026786308797,-0.348879413384919
89.3,-0.100438598271003,-0.605202077949781,-0.21057257026927,-0.102508151723349,-0.349140715591749
89.4,-0.100255840543383,-0.605454043216558,-0.210681632111777,-0.102411190208138,-0.34936681323707
89.5,-0.100050549550156,-0.605746559786938,-0.210772218957269,-0.102358204290987,-0.349567268096994
89.6,-0.0998272590352888,-0.606060212325261,-0.210847716195886,-0.102314356324456,-0.34975508755397
89.7,-0.0995942110633886,-0.60637541041749,-0.210906710202682,-0.102278645350586,-0.34994148149648
89.8,-0.0993596476990606,-0.606672563649586,-0.210947846914266,-0.102250070411415,-0.350137659813005
89.9,-0.0991317034829547,-0.606945655252922,-0.210973579485072,-0.102227648878765,-0.350355245289555
90,-0.0989104487518675,-0.607217010352937,-0.210991532327122,-0.10221149772004,-0.350598962909605
90.1,-0.0986907894721852,-0.607479339151374,-0.211009580130471,-0.102199700735185,-0.350855827442335
90.2,-0.098469421551869,-0.607723424876756,-0.21103559758517,-0.102189038052129,-0.351111090287781
90.3,-0.0982430408988805,-0.607940050757611,-0.211082747651782,-0.102176289798803,-0.351350002845979
90.4,-0.0980081720121271,-0.60812217745676,-0.211172219738438,-0.10215819321006,-0.351562808627001
90.5,-0.0977538359885212,-0.608277384256866,-0.21129501718019,-0.102126291357984,-0.351772985838328
90.6,-0.0974853207930018,-0.608418134236069,-0.211439266347792,-0.10208106745207,-0.351975319832901
90.7,-0.0972170785801621,-0.608556798595159,-0.211593103502393,-0.102029813367574,-0.352156965975616
90.8,-0.0969635615045951,-0.608705748534928,-0.211770508069822,-0.10197982097975,-0.352305079631373
90.9,-0.0967390108698029,-0.608876083753611,-0.211984117661929,-0.101938374997054,-0.352408450521571
91,-0.0965358344052488,-0.609065098291055,-0.212222968722488,-0.101907038902435,-0.352477621817263
91.1,-0.0963444298803711,-0.609261645013676,-0.212476097695273,-0.101880456509328,-0.352530506248216
91.2,-0.0961660573887879,-0.609454457181717,-0.212744364673845,-0.101854627668415,-0.352583658082714
91.3,-0.0960019770241171,-0.60963226805542,-0.213086919358908,-0.101825552230382,-0.352653631589042
91.4,-0.0958535157182925,-0.609787860826141,-0.213454209357998,-0.101789229407428,-0.352765579346208
91.5,-0.0957278474479428,-0.609930800068774,-0.213774345543804,-0.101740974458256,-0.352988331943098
91.6,-0.0956196602521826,-0.610065275691749,-0.213975438789013,-0.101680893765517,-0.353284719040524
91.7,-0.0955153900107434,-0.610194535662104,-0.214054449954076,-0.10161197309955,-0.353594551450616
91.8,-0.0954014726033568,-0.610321827946881,-0.214105228316467,-0.101537198230697,-0.353857639985504
91.9,-0.095264332010303,-0.610456039094448,-0.214144541097454,-0.101459554714869,-0.35402169577054
92,-0.095092549079207,-0.610609913734568,-0.214187615517843,-0.101375453431193,-0.354129808669189
92.1,-0.0948913007261429,-0.610762364717382,-0.214249624261312,-0.101281849763546,-0.354215484818223
92.2,-0.0946710700184688,-0.610889595260797,-0.214337399822861,-0.101182321498083,-0.354297214791536
92.3,-0.0944423400235429,-0.610967808582725,-0.214445505082638,-0.101080446420965,-0.35439348916302
92.4,-0.0942155538065352,-0.610988570074786,-0.214568314955947,-0.100979802297734,-0.354525503989984
92.5,-0.0939848714360252,-0.611000736448969,-0.214700204358093,-0.100878622433588,-0.354723267156887
92.6,-0.0937441739258659,-0.611010134907563,-0.214837917878553,-0.10077450121617,-0.354960776931803
92.7,-0.09349920438517,-0.611016531725678,-0.214995189699239,-0.10066999630754,-0.35520043816121
92.8,-0.0932557059230501,-0.61101969317843,-0.215166873835579,-0.100567665369753,-0.35540465569159
