Temperature,DSC_an,DSC_anele,DSC_caan,DSC_ca,DSC_caele
73,-0.127979052305011,-1.21245678675801,-0.139022778718944,-0.116457959468486,-0.460982964617282
73.1,-0.127704466261443,-1.21340912140287,-0.13892262096273,-0.116421202562926,-0.461375188284566
73.2,-0.127435633283358,-1.2142554559783,-0.138805301350968,-0.116368703225942,-0.461765349876668
73.3,-0.127153409177953,-1.21505167780085,-0.138676034061994,-0.116300961615322,-0.462157882384855
73.4,-0.126838649752423,-1.21585233521863,-0.138540034435474,-0.116220065845207,-0.462557218800396
73.5,-0.1264719079964,-1.21671197657975,-0.138402517811073,-0.116128104029737,-0.462967979184216
73.6,-0.125906322211255,-1.21767271050621,-0.138257595300829,-0.11602194318868,-0.46339966376406
73.7,-0.125153210689419,-1.21871025434932,-0.138098449981173,-0.115867095867635,-0.463846309240847
73.8,-0.124391704953225,-1.21977969765374,-0.137936230943731,-0.115679233127204,-0.464294975737523
73.9,-0.123800936525011,-1.22083619220756,-0.137782209237242,-0.115485859499889,-0.464732723377033
74,-0.123560036927111,-1.22183488979888,-0.137647655910443,-0.115314479518195,-0.465146837431021
74.1,-0.123588931921299,-1.22273762534156,-0.137539044742512,-0.1151879376759,-0.46554591415776
74.2,-0.123659347398853,-1.22356438500082,-0.13744724861066,-0.115076686936181,-0.465936485259992
74.3,-0.123744284458138,-1.22436495192945,-0.137362282768276,-0.114974383409173,-0.466313137720566
74.4,-0.123816776373563,-1.22518934492654,-0.137274230756385,-0.114886945292797,-0.466670458522333
74.5,-0.123849856419533,-1.22608758279121,-0.137173176116013,-0.114820290784973,-0.467002999034446
74.6,-0.123696890312168,-1.22711435486437,-0.137051849394848,-0.114779059912268,-0.46730185041837
74.7,-0.123276454317363,-1.22827397631597,-0.136913608313441,-0.114749604580473,-0.467574800123845
74.8,-0.122719850577867,-1.22950304510703,-0.136762996624502,-0.114725749495992,-0.467838734095267
74.9,-0.122159076012314,-1.23073617326984,-0.136604483301952,-0.114706339812961,-0.46811053827703
75,-0.121726127539334,-1.23190797283666,-0.13644253731971,-0.114690220685517,-0.468407092945997
75.1,-0.121456513130477,-1.23296739556468,-0.13627397889899,-0.114676393604122,-0.468730441386449
75.2,-0.121238424583791,-1.23394614357236,-0.13608795355387,-0.114666183897218,-0.469071160811959
75.3,-0.121042439320084,-1.23489403703719,-0.135896194333493,-0.114658391097511,-0.469427454139272
75.4,-0.120840455601335,-1.23585988013435,-0.135711500027233,-0.114650675460894,-0.469797524285137
75.5,-0.120604371689526,-1.23689247703907,-0.135546669424465,-0.114640697243265,-0.470179574166299
75.6,-0.120310972478608,-1.23803976872647,-0.135408438443015,-0.114625892983851,-0.470584015107139
75.7,-0.119968847253606,-1.23930251893594,-0.135283543686318,-0.114599448132016,-0.4710144924328
75.8,-0.119599309199276,-1.24063211571843,-0.135168464800304,-0.114560990796104,-0.471456697410161
75.9,-0.119223705023505,-1.24197818658169,-0.135060780492462,-0.114513147208589,-0.471896310466576
76,-0.118863381434173,-1.24329035903347,-0.134958069470279,-0.114458543601943,-0.472319012029399
76.1,-0.118517774206795,-1.24453476912177,-0.134861434961895,-0.114399104088124,-0.472725293971957
76.2,-0.118160259650309,-1.24575107770712,-0.134778499297405,-0.114310940584006,-0.473127017907119
76.3,-0.117809743709937,-1.24694906181859,-0.134700643070236,-0.114197391433929,-0.473520332582071
76.4,-0.117486767794471,-1.24813289004061,-0.134617757299895,-0.114080658535237,-0.473901296790791
76.5,-0.117211873312701,-1.2493067309576,-0.134519733005889,-0.113982943785278,-0.474265969327252
76.6,-0.117001790230527,-1.25046106534269,-0.134392868217154,-0.113926171314786,-0.474604904293406
76.7,-0.116841567804484,-1.25155460103283,-0.134221969605658,-0.113899606393918,-0.474918063305626
76.8,-0.116700639674906,-1.2526309580565,-0.134022307193506,-0.113882398966917,-0.475222908682859
76.9,-0.116548334773456,-1.25374392988137,-0.133812141364567,-0.113867647379291,-0.475537069491009
77,-0.116353982031799,-1.25494730997509,-0.133609732502714,-0.113848449976548,-0.475878174795981
77.1,-0.116042149181432,-1.25631710905969,-0.133428265165377,-0.113817772605245,-0.476270913486102
77.2,-0.115526318432263,-1.25795540981209,-0.133251393967241,-0.113729170556464,-0.476716652625608
77.3,-0.114930499323255,-1.25973514325277,-0.133077788144066,-0.113576431593513,-0.477180932871594
77.4,-0.114390567485191,-1.26150037869993,-0.132909964736393,-0.113399241537527,-0.477628747336773
77.5,-0.114042398548849,-1.26309518547178,-0.132750440784765,-0.11323728620964,-0.478025089133855
77.6,-0.113947165142318,-1.26438745698968,-0.132602430577453,-0.113130251430988,-0.478349011946249
77.7,-0.113904200283498,-1.26547233761692,-0.132469310836271,-0.113073588684244,-0.478627481434397
77.8,-0.113876219389168,-1.26644737853494,-0.132344198957753,-0.113030855331056,-0.478885390770434
77.9,-0.11384667784244,-1.26738850071086,-0.132218812888134,-0.11299473038178,-0.479147040244174
78,-0.113799031026427,-1.26837162511178,-0.132084870573649,-0.112957893377273,-0.479436730145429
78.1,-0.113686360269823,-1.26946184563736,-0.131933342951917,-0.11291302385839,-0.479774298107807
78.2,-0.113396384199383,-1.27061450202185,-0.131756990576568,-0.112855003750376,-0.480152136121103
78.3,-0.112981479381061,-1.27180925978128,-0.131566724635734,-0.11278750829848,-0.480553613544425
78.4,-0.112511853550311,-1.273043159426,-0.131376105517929,-0.112716330331806,-0.480962192962375
78.5,-0.112057714442587,-1.27431324146636,-0.131198693611666,-0.11264726166082,-0.481361336959552
78.6,-0.111666100752329,-1.27562183927034,-0.131046825559562,-0.112586094095991,-0.481740901480204
78.7,-0.111265448156393,-1.27701128271519,-0.130914682679746,-0.112536826966851,-0.482112961143796
78.8,-0.110861745757099,-1.27845673503461,-0.130793365582804,-0.112495522782087,-0.482481933421408
78.9,-0.11047728677578,-1.27991475058581,-0.130676146934131,-0.112456179326266,-0.48285128052695
79,-0.110134364433772,-1.281341883726,-0.13055629939912,-0.112412798222449,-0.483224464674331
79.1,-0.109849942879818,-1.28269638377839,-0.130427599519993,-0.112359381093696,-0.483604915879488
79.2,-0.109601082136014,-1.28398016186943,-0.130292662833872,-0.112288939449089,-0.483992500398909
79.3,-0.109376060794628,-1.28522534425536,-0.130154384101743,-0.1121996533418,-0.484383080543181
79.4,-0.109168078050189,-1.28646192062541,-0.130014016813634,-0.112095838389367,-0.484772362199258
79.5,-0.108970333097227,-1.28771988066882,-0.129872814459573,-0.111981882115239,-0.485156051254094
79.6,-0.108779474300059,-1.2890271013482,-0.129732179999479,-0.111862172042863,-0.485530720731868
79.7,-0.108612569570539,-1.29036641279954,-0.129594809481629,-0.111716875278548,-0.485898519093787
79.8,-0.108458613629451,-1.29172895335887,-0.129458279438049,-0.111524387434142,-0.486261946847286
79.9,-0.108300066072591,-1.29311890877427,-0.12931861562611,-0.111326061582045,-0.486623274761542
80,-0.108119386495754,-1.29454046479382,-0.129171843803182,-0.111164678404552,-0.486984773605735
80.1,-0.107893248080557,-1.29599993348089,-0.129013536353609,-0.111083018583952,-0.487348241587094
80.2,-0.107571307496799,-1.29754490461397,-0.128831801491647,-0.111083129658087,-0.487712386815201
80.3,-0.107192615708683,-1.29915173182918,-0.128633598071584,-0.111094470825648,-0.488076283811498
80.4,-0.106815581241559,-1.30076435271485,-0.128433397712515,-0.111110990405079,-0.48843923447405
80.5,-0.106498612620779,-1.30232670485931,-0.128245672033533,-0.111129390262718,-0.488800540700922
80.6,-0.106290739672274,-1.30378266888636,-0.128084386777025,-0.111146372264906,-0.489160853935532
80.7,-0.106117479005797,-1.30510220775074,-0.127939322062511,-0.111160429284714,-0.48952546156252
80.8,-0.105960734440933,-1.30633832190148,-0.127802697524713,-0.111174316301941,-0.489889696195146
80.9,-0.105835839578383,-1.30755960174089,-0.127677097806687,-0.111188198059785,-0.490247321830819
81,-0.105758128018847,-1.3088346376713,-0.127565107551491,-0.11120207596038,-0.49059210246695
81.1,-0.105748126382343,-1.31023237633804,-0.127469198127585,-0.111215951405855,-0.490916748217104
81.2,-0.105888839766859,-1.31181782793279,-0.127382690246835,-0.111231008943135,-0.491215275564755
81.3,-0.106144843907178,-1.31354091588478,-0.127302443580354,-0.111248996252221,-0.491500414210816
81.4,-0.1064382100589,-1.31531249107374,-0.127231268806811,-0.111266897243727,-0.491787351889015
81.5,-0.106691009477622,-1.31704340437937,-0.127171976604877,-0.111281448637012,-0.492091276333085
81.6,-0.106829657424746,-1.31864488030986,-0.127127378603618,-0.111289387151437,-0.492429156958188
81.7,-0.10691575812904,-1.32013039999314,-0.127098454917051,-0.111289276514006,-0.49281638564167
81.8,-0.106991541158872,-1.32155868401788,-0.12707902513586,-0.111285480453177,-0.493230753698963
81.9,-0.107051265497038,-1.32293858237052,-0.12706120824365,-0.111278538748888,-0.493644379260796
82,-0.107089190126334,-1.3242789450375,-0.127037123224029,-0.111268572316924,-0.494029380457896
82.1,-0.107088577990026,-1.32558861145723,-0.126998834353242,-0.111255702073073,-0.494361513657515
82.2,-0.106572079978316,-1.32685794857377,-0.126847371385018,-0.111203306197088,-0.49465993237604
82.3,-0.105489472235655,-1.32808414938678,-0.126547479114858,-0.111000376479543,-0.494937724863761
82.4,-0.104120383757661,-1.32928367084342,-0.126173029731636,-0.110704361971373,-0.495200796937316
82.5,-0.102744443539957,-1.3304729698909,-0.125797895424228,-0.11038891448562,-0.495455054413341
82.6,-0.101637533506546,-1.33166850347638,-0.125495948381509,-0.110127685835323,-0.495705079529592
82.7,-0.100664039299805,-1.33286741387687,-0.12527346822616,-0.109967833533391,-0.49594126661509
82.8,-0.0996833145464191,-1.33405793956786,-0.125074765334962,-0.109832095600374,-0.496167024931853
82.9,-0.0987774272699597,-1.33524555434851,-0.124889050948632,-0.109711867217733,-0.496390774672594
83,-0.0980284454939988,-1.33643574090632,-0.124705571638808,-0.109611780177336,-0.496620936030024
83.1,-0.0975180892941933,-1.3376339819288,-0.124513573977129,-0.109536466271057,-0.496866184567345
83.2,-0.0971915888421228,-1.33884605486624,-0.124311265628037,-0.109488837317697,-0.497133053271054
83.3,-0.0969396524234657,-1.34006916194456,-0.124106514350155,-0.109458683048859,-0.497412199793109
83.4,-0.0967278789938458,-1.34129491215867,-0.123899870016686,-0.109436622405585,-0.497691217556864
83.5,-0.0965218675088865,-1.34251490309184,-0.123691843852962,-0.109414346317625,-0.497957699985673
83.6,-0.0962872212431026,-1.34372073232739,-0.123482947084316,-0.109383545714731,-0.498199148478391
83.7,-0.0960321006522082,-1.34490305296618,-0.123275118966246,-0.109330489347578,-0.49840908689003
83.8,-0.095778883356373,-1.34606540654047,-0.123068719813058,-0.109219826613276,-0.498601351660054
83.9,-0.095516897789384,-1.34722173210004,-0.122860420769095,-0.109069992761492,-0.49879326864903
84,-0.0952354723850283,-1.34838602630305,-0.122646863536738,-0.108909312225303,-0.499002163717526
84.1,-0.094923935577093,-1.34957228580768,-0.12242468981837,-0.108766109437783,-0.499245794897165
84.2,-0.0945272646576301,-1.35078971450045,-0.122185283263185,-0.108664911696565,-0.499544196521543
84.3,-0.0940385851110115,-1.35203056991981,-0.121926147763537,-0.108586978606926,-0.499883721400665
84.4,-0.0935348133576362,-1.35328519366513,-0.121661346627449,-0.108519181384638,-0.500240514269115
84.5,-0.0930929773944777,-1.35454398435278,-0.121405179390154,-0.108455106009034,-0.500590719861477
84.6,-0.0927901052185091,-1.35579734059909,-0.121171945586884,-0.108388338459447,-0.500911201792263
84.7,-0.0926318343817238,-1.35704871399281,-0.120966388371899,-0.108312708461236,-0.501215076393654
84.8,-0.0925253243947259,-1.35831106578413,-0.120774528500133,-0.108228051369658,-0.501512832278016
84.9,-0.0924385549369777,-1.35957072913175,-0.120593980091549,-0.108138894254005,-0.501799422325996
85,-0.0923402438767542,-1.36081338008172,-0.120422825680544,-0.108049655245628,-0.50206979941824
85.1,-0.0921991090823299,-1.36202469468012,-0.120259147801516,-0.107964752475879,-0.502318898936807
85.2,-0.0919589515117052,-1.36318684755902,-0.120105487344362,-0.107888681064794,-0.502543285486986
85.3,-0.0915865846571712,-1.36430114535086,-0.119966716490179,-0.107823978564439,-0.50274969432143
85.4,-0.0911263761049341,-1.36539628344607,-0.119833831938251,-0.107765269480101,-0.502947654719211
85.5,-0.0906239700586546,-1.36650154716754,-0.119697285714433,-0.107705824742001,-0.503146695959401
85.6,-0.0901250107219934,-1.36764622183817,-0.119547529844583,-0.107638915280355,-0.503356285171271
85.7,-0.089639761272389,-1.36885816779348,-0.119376595373717,-0.10755741880157,-0.503572295097897
85.8,-0.0891201980490505,-1.37013101560185,-0.119186785104736,-0.10745069670744,-0.503789792325575
85.9,-0.0885801493221316,-1.37143163110506,-0.118983824371619,-0.107324481285687,-0.504012401115102
86,-0.0880360376690611,-1.37272639204958,-0.118773386673177,-0.107189584547181,-0.504243745727275
86.1,-0.0875042856672677,-1.37398167618188,-0.11856114550822,-0.107056818502795,-0.504487464063816
86.2,-0.0869672910690272,-1.37518239234408,-0.118346853897884,-0.106936519461022,-0.504759232941761
86.3,-0.08637518436873,-1.37636084648585,-0.11811901286793,-0.106822385011684,-0.505056706433408
86.4,-0.0857907068437161,-1.37751551292254,-0.117886829683392,-0.106710211251478,-0.505359158301067
86.5,-0.085282409895288,-1.37864224412292,-0.117661153542704,-0.106602003780109,-0.505645862307045
86.6,-0.0849188449247479,-1.37973689255578,-0.117452833644298,-0.106499768197284,-0.505896092213653
86.7,-0.0847288103761026,-1.38078438421648,-0.117272086399959,-0.106405550413803,-0.506100514946157
86.8,-0.084604042341782,-1.38176630743882,-0.117116350984346,-0.106321760298934,-0.506276625437832
86.9,-0.0845088830195927,-1.38272084550998,-0.116971696362731,-0.106245268720453,-0.506443413184122
87,-0.0844165554247587,-1.38368976558697,-0.116823820896546,-0.106171009352449,-0.506619866111808
87.1,-0.0843002825725042,-1.38471483482685,-0.11665842294722,-0.106093915869009,-0.506824972147673
87.2,-0.0841414042609408,-1.38585304674664,-0.116459268276703,-0.106009038093109,-0.507094023486195
87.3,-0.0839548838937194,-1.38714211138264,-0.116217936066656,-0.105920685327783,-0.507425556031711
87.4,-0.0837351196569559,-1.38849134219597,-0.115952915413679,-0.10583001157552,-0.507772183636376
87.5,-0.0834731878823723,-1.38980103392767,-0.115684753253392,-0.105732349939965,-0.508086390046196
87.6,-0.0831601649016902,-1.39097148131877,-0.11543399652142,-0.105623033524766,-0.508320659007178
87.7,-0.0827402460871512,-1.39192403694324,-0.115217203537134,-0.105497142752934,-0.508469020220899
87.8,-0.0820164747168297,-1.39272285883181,-0.115022652516397,-0.105323846634566,-0.508584603257213
87.9,-0.0811139973878063,-1.3934435871242,-0.114839302307244,-0.105107086644797,-0.508683207440172
88,-0.0802040281825678,-1.39415569234022,-0.114657970823491,-0.104879492784521,-0.50878009141219
88.1,-0.0794577811836007,-1.39492864499971,-0.114469475978957,-0.104673695054629,-0.508890513815677
88.2,-0.0790144047299468,-1.39583066269869,-0.114265370258888,-0.104522163899863,-0.50902397556586
88.3,-0.0787296331759233,-1.3968698782308,-0.11404685046255,-0.104410401477425,-0.509171925205017
88.4,-0.0785089643203203,-1.39798059187835,-0.113820763496035,-0.104311662234433,-0.509325540321946
88.5,-0.0782934767406478,-1.39909306877156,-0.113593891982406,-0.104226369089335,-0.509476098641971
88.6,-0.0780242490144155,-1.40013757404067,-0.113373018544728,-0.104154944960577,-0.509614877890419
88.7,-0.077628785100432,-1.40105571611444,-0.113162577024347,-0.104097814310788,-0.509739629113872
88.8,-0.0769795815051947,-1.40188467966535,-0.112952782762504,-0.104055058171817,-0.509859046872063
88.9,-0.0761614953005122,-1.40266513590406,-0.1127462624115,-0.10402213688341,-0.50997254478948
89,-0.0753029967169628,-1.40343068136921,-0.112548657976842,-0.103992741480827,-0.510079199970559
89.1,-0.0745325559851248,-1.40421491259945,-0.112365611464036,-0.103960562999332,-0.510178089519731
89.2,-0.0739668325750014,-1.40505188901489,-0.112203176608366,-0.103919290727249,-0.510267662905948
89.3,-0.0735403367142759,-1.40595156262521,-0.112064176650703,-0.10385773076012,-0.510348224327808
89.4,-0.0731760194917523,-1.40687593866734,-0.111937961785473,-0.10377806209904,-0.510423900190531
89.5,-0.0728249815491301,-1.40778267106724,-0.111812187556315,-0.103693336900552,-0.510498922407469
89.6,-0.072438323528109,-1.40862941375089,-0.111674509506866,-0.103616607321196,-0.510577522891973
89.7,-0.0719658057376246,-1.40937825953816,-0.111512461067325,-0.103560925517515,-0.510662783208001
89.8,-0.0713710712607417,-1.41004802527385,-0.111320363829511,-0.103527601862624,-0.510752567026844
89.9,-0.0706988162272445,-1.41067030402151,-0.111108292591598,-0.103503908282634,-0.510844310285834
90,-0.0700081273690495,-1.41127189449084,-0.110888094635543,-0.10348304341983,-0.510935525748386
90.1,-0.0693580914180732,-1.41187959539153,-0.110671617243304,-0.103458210631197,-0.511023726177913
90.2,-0.0688002946137487,-1.41252250767592,-0.110469710016379,-0.103422613273715,-0.511110008738509
90.3,-0.0682688338832905,-1.413226741274,-0.110278019387885,-0.103358513455317,-0.511200492462341
90.4,-0.0677562636794673,-1.41395175032421,-0.110090591069376,-0.103258391760799,-0.511289042699857
90.5,-0.0672928259054639,-1.41464539016404,-0.109903616049007,-0.10313617924729,-0.511368736004647
90.6,-0.0669087624644646,-1.41525551613098,-0.109713285314932,-0.103005863422496,-0.5114326489303
90.7,-0.0666327710910248,-1.41573634558036,-0.109515070718713,-0.102881431794123,-0.511476887818978
90.8,-0.0664487473762861,-1.41613735523039,-0.109299979949411,-0.102756867492678,-0.511510236657911
90.9,-0.0663114878030591,-1.41649125865668,-0.109076516364747,-0.10261803318135,-0.511538046865801
91,-0.0661792506945701,-1.41681013593637,-0.108857729939523,-0.102480138059681,-0.511565030226542
91.1,-0.0660102943740451,-1.41710606714656,-0.10865667064854,-0.1023586335988,-0.511595898524027
91.2,-0.065753314522859,-1.41738898672934,-0.108486113077599,-0.102268971269834,-0.511636966927386
91.3,-0.0652350029434207,-1.4176390187305,-0.108346690419705,-0.102210457515587,-0.511692517881062
91.4,-0.0645147144835044,-1.41786472579381,-0.108224654257649,-0.102161770872197,-0.51175261574946
91.5,-0.0637377154436866,-1.41808750651324,-0.108105731542296,-0.102120830901655,-0.511806273027759
91.6,-0.0630492721245438,-1.41832875948274,-0.107975649224514,-0.102085912752864,-0.511842502211137
91.7,-0.0625875629273983,-1.41861088559471,-0.107819672947476,-0.102055291574724,-0.511855300316535
91.8,-0.0622932149307115,-1.41896028939145,-0.107621374556576,-0.102029730268172,-0.511861867625878
91.9,-0.0620661087161246,-1.41935439288231,-0.107393753203797,-0.102010749846641,-0.511866405491525
92,-0.0618483633002002,-1.41975754441643,-0.107158054198449,-0.101993847822908,-0.511870642586562
92.1,-0.0615820976995007,-1.42013409234297,-0.106935522849846,-0.101974379486447,-0.511876307584076
92.2,-0.0612037049136811,-1.42045004626243,-0.106747043062615,-0.101947700126733,-0.51188502686778
92.3,-0.0605622914032924,-1.42072325586416,-0.106592754967834,-0.101904386461281,-0.511897127354412
92.4,-0.0597064760283325,-1.42097419992543,-0.106456155751981,-0.101835007631068,-0.511912155009913
92.5,-0.0587629095545164,-1.4212084468963,-0.106323250625139,-0.101746250536201,-0.511929657587356
92.6,-0.0578582427475587,-1.42143156522682,-0.106180044797388,-0.101645342319039,-0.511949182839813
92.7,-0.0571122229302075,-1.42164902500743,-0.10601242062886,-0.101539510121943,-0.511972357896364
92.8,-0.0564343078113449,-1.42186118730326,-0.105806517154186,-0.101419360654977,-0.512008828350545
