Temperature,DSC_an,DSC_anele,DSC_caan,DSC_ca,DSC_caele
73,-0.228443302049424,-0.536285509912773,-0.164011630677915,-0.175404780386243,-0.410870885317638
73.1,-0.228214115757811,-0.536794076950228,-0.164401424922487,-0.175500158086419,-0.411138922009588
73.2,-0.228000110334068,-0.537301115382699,-0.164698672819464,-0.175548769473083,-0.411406658342162
73.3,-0.227844515433342,-0.53778312255297,-0.16485403571769,-0.175511667359435,-0.4116594704846
73.4,-0.227771509501999,-0.538216975493106,-0.164960334675232,-0.175391057337791,-0.411882738554389
73.5,-0.227728000226402,-0.538601422524814,-0.165064736895814,-0.175236118329349,-0.412072792529102
73.6,-0.227695886018249,-0.538956314027659,-0.165212965108837,-0.175096685547578,-0.412246794158862
73.7,-0.227662653438526,-0.539300142237506,-0.165479245914543,-0.175022594205946,-0.412423992837346
73.8,-0.227615789048219,-0.539651399390219,-0.165837150888462,-0.175032014428249,-0.412623637958226
73.9,-0.227534096962449,-0.540028703372131,-0.166199869695555,-0.175072273132342,-0.412867490665234
74,-0.227386282064486,-0.540445829717243,-0.166482200668814,-0.175124777574357,-0.413184916004844
74.1,-0.227196443366731,-0.540886400113447,-0.166688218549827,-0.175172598552771,-0.413551684104748
74.2,-0.22699388898002,-0.541326645297527,-0.166866190846222,-0.175198806866061,-0.413932559803909
74.3,-0.226807927015191,-0.541742796006264,-0.167043834983307,-0.175182238127576,-0.414292307941284
74.4,-0.226661297970748,-0.542111437608912,-0.167247894136524,-0.175118686794579,-0.41460031789492
74.5,-0.226536439646227,-0.542435514861534,-0.167473298078448,-0.175034461331954,-0.414886873222864
74.6,-0.226419887625235,-0.542733370395719,-0.167714688048862,-0.174956719873859,-0.41516038979351
74.7,-0.226300738444872,-0.543016951074856,-0.167976601389402,-0.174912620554454,-0.415414477700684
74.8,-0.226168088642239,-0.543298203762333,-0.168269905289422,-0.174911653009197,-0.415642747038208
74.9,-0.226005911141783,-0.543588899366104,-0.168647236139601,-0.17491808077125,-0.415838291408769
75,-0.225794571103104,-0.543885847562865,-0.169052075974677,-0.174926763740682,-0.415995250754902
75.1,-0.225561543169113,-0.544182798720071,-0.169399796571974,-0.174934890113517,-0.416129621704814
75.2,-0.225339446095725,-0.544479740896657,-0.169617752318193,-0.174939648085778,-0.416261803200805
75.3,-0.225160898638858,-0.544776662151554,-0.169758885853631,-0.174935555863394,-0.416412194185173
75.4,-0.225050551489394,-0.545073674268503,-0.169873401480949,-0.174916728529048,-0.416602996204926
75.5,-0.224977624569335,-0.545380878550983,-0.169996961817587,-0.174890797329173,-0.416867328691045
75.6,-0.224920692932545,-0.54569548224203,-0.170162677288872,-0.17486619065023,-0.417182006238047
75.7,-0.22486334645721,-0.546004412219768,-0.170370122284686,-0.174851336878683,-0.417508816372716
75.8,-0.224789175021516,-0.54629459536232,-0.170603145534812,-0.174852628840041,-0.417809546621836
75.9,-0.2246761606109,-0.546552962904407,-0.170846645747091,-0.174864870602782,-0.418048139474067
76,-0.224491542259344,-0.546773032321199,-0.171094289150121,-0.174882081754145,-0.418240620718755
76.1,-0.224259685749545,-0.546968020980447,-0.171375711454693,-0.174898636677304,-0.41841081063964
76.2,-0.224012926132523,-0.547154805750716,-0.171659377728947,-0.174908909755438,-0.418571763401767
76.3,-0.223783598459297,-0.547350263500568,-0.171903080128811,-0.174898362092122,-0.418736533170179
76.4,-0.223597801852969,-0.547571290847339,-0.172070582410855,-0.174837307496269,-0.418918121578116
76.5,-0.223432376088043,-0.547834909134308,-0.172185509879716,-0.174745802843114,-0.419121648527341
76.6,-0.22327715092197,-0.548130723975776,-0.172283226973442,-0.174648798036522,-0.419336124419001
76.7,-0.223128247952671,-0.548436524336954,-0.172395419954277,-0.174571242980358,-0.419548598284951
76.8,-0.222981788778071,-0.548730099183052,-0.172561848213143,-0.174530792826868,-0.419746119157044
76.9,-0.222834503149431,-0.548989252923823,-0.172826752636492,-0.174505730114506,-0.419915803625373
77,-0.222688612869506,-0.549220728082326,-0.173126723832336,-0.174486208272047,-0.420053729780111
77.1,-0.222545269845676,-0.549441177814063,-0.17338394265128,-0.17446562808872,-0.420173788262224
77.2,-0.222404894497754,-0.549646885281516,-0.173525282471128,-0.174437390353752,-0.420291971699693
77.3,-0.222267907245556,-0.549834133647167,-0.173591537243913,-0.174385327930422,-0.420424272720495
77.4,-0.222135758885885,-0.549999206073501,-0.173637045970375,-0.174271800299282,-0.420587436207156
77.5,-0.222014649706153,-0.550144920518702,-0.173691383598841,-0.174127507932233,-0.420809656276371
77.6,-0.22189866303655,-0.550277683533588,-0.173791378008952,-0.173991731202837,-0.421076225006146
77.7,-0.221779399434585,-0.550398983134733,-0.174127040996582,-0.173903750484655,-0.42135632554941
77.8,-0.221648459457769,-0.550510307183618,-0.174615428198297,-0.17388826288911,-0.421619141059089
77.9,-0.221495670390159,-0.550613143541722,-0.175045973634088,-0.173886081219401,-0.421834661776412
78,-0.221305180126436,-0.55071899681359,-0.175209483027862,-0.173884797164321,-0.422012974105923
78.1,-0.22109152942804,-0.550829735023166,-0.175146561390787,-0.173883579112357,-0.422173746913964
78.2,-0.220875188339333,-0.550929558878599,-0.175022318924009,-0.173881595451995,-0.422324326943053
78.3,-0.220676626904677,-0.551002651783524,-0.174899327902736,-0.17387624919181,-0.422472060935711
78.4,-0.220514647551071,-0.551033197141573,-0.174840160602173,-0.173858512715961,-0.422624257730416
78.5,-0.220381783904803,-0.55102806657059,-0.175045906596604,-0.173833618819194,-0.422783352643916
78.6,-0.220263438925131,-0.55101412564747,-0.175546100214181,-0.173809179786737,-0.422943952459921
78.7,-0.220147679217072,-0.550996978458795,-0.176086511327493,-0.173792807903817,-0.423100211119797
78.8,-0.220022571385645,-0.550982125074134,-0.176412393888732,-0.173794024127861,-0.423246282564907
78.9,-0.219875942850813,-0.550975065563056,-0.176444295941872,-0.17382605115129,-0.423376422804377
79,-0.219700703111695,-0.550975708580219,-0.176453705463815,-0.173876150175609,-0.423493317318855
79.1,-0.219507878573632,-0.550977676038392,-0.176461349117908,-0.173927461418291,-0.423601713809723
79.2,-0.219311176713011,-0.550980124866982,-0.176476135221518,-0.173963125096811,-0.423703025701544
79.3,-0.219124305006219,-0.550982267934247,-0.17661242954428,-0.173969814789794,-0.423798666418882
79.4,-0.218960853555098,-0.550983318108443,-0.176973039152332,-0.173968099054114,-0.423889952095335
79.5,-0.218824360054157,-0.550971403178636,-0.17738874962991,-0.173965341261014,-0.423970486573383
79.6,-0.218700918535707,-0.550932801401644,-0.177685038999805,-0.173962476116885,-0.424041950781585
79.7,-0.218574893486039,-0.550874529603789,-0.177781040212992,-0.173960438328118,-0.424113136354084
79.8,-0.218430649391445,-0.550803852252678,-0.177832685938621,-0.173962215327063,-0.42419283492502
79.9,-0.218250040646707,-0.550728033815915,-0.177872685524254,-0.173986920108362,-0.424290063606264
80,-0.217993274979443,-0.550640498698676,-0.177925414058755,-0.174027880876793,-0.424436184193864
80.1,-0.21768324479227,-0.550524798671,-0.178022436842905,-0.174071082037984,-0.42462405666933
80.2,-0.217361545969716,-0.550388339753305,-0.178251799971221,-0.174102507997564,-0.424818289216755
80.3,-0.217069774396307,-0.550238961126587,-0.178568503920584,-0.1741062428957,-0.424983490020231
80.4,-0.21684756130833,-0.550084501971843,-0.178889903258097,-0.174054229659026,-0.425084446221269
80.5,-0.216682324743693,-0.549925292519006,-0.179136566819011,-0.173965051781685,-0.425134922865343
80.6,-0.216543692866176,-0.549751921580982,-0.179317892046086,-0.173869556408983,-0.425169588182412
80.7,-0.216409744410111,-0.549566059861228,-0.179478352050088,-0.173798590686232,-0.42519888057303
80.8,-0.216258558109829,-0.549369663910536,-0.179649024065788,-0.173783309048129,-0.42523323843775
80.9,-0.216068207901683,-0.549164690279697,-0.179861700995113,-0.173842108604827,-0.425283126937803
81,-0.215825905587769,-0.548930413957023,-0.180176209626068,-0.173946514400604,-0.425365763016973
81.1,-0.215541985537649,-0.548646885612277,-0.180560514173179,-0.174059927254753,-0.425480526764739
81.2,-0.21523020082186,-0.548357146397732,-0.180936788063416,-0.174145747986567,-0.425614079494019
81.3,-0.214904304510938,-0.548105735994017,-0.181227204723751,-0.174169429608622,-0.425753082517732
81.4,-0.214575469961932,-0.547937194081758,-0.181394804217526,-0.174156392119585,-0.42588421215112
81.5,-0.214195921756619,-0.547860231160473,-0.181510677411638,-0.174132492400376,-0.42600991085138
81.6,-0.213778820164331,-0.547811669765525,-0.181614594210896,-0.174106214248529,-0.426138493156442
81.7,-0.213372246947743,-0.547774631731204,-0.181744286164146,-0.174086041461576,-0.426268007315711
81.8,-0.213024283869527,-0.547734281990407,-0.181945807161756,-0.174081061081194,-0.426396501578592
81.9,-0.212780013393546,-0.547675785476034,-0.182249550388175,-0.174111820127948,-0.426522030839044
82,-0.212579511372633,-0.547583672798211,-0.182605626939831,-0.174169777246962,-0.426663724194101
82.1,-0.212395044350837,-0.547449801847475,-0.182958378634104,-0.174234165795294,-0.426821995224177
82.2,-0.212244960963148,-0.547274696401738,-0.183255641544467,-0.174284219130004,-0.426969216484884
82.3,-0.212147609844557,-0.547059071013881,-0.183532980098796,-0.174297390746229,-0.427077760531836
82.4,-0.212120749273631,-0.546803640236785,-0.183799497915543,-0.174196523787174,-0.427119999849873
82.5,-0.212149129831922,-0.546446866052378,-0.184032425028517,-0.173989573041559,-0.427040275811593
82.6,-0.212204094865863,-0.545880650953952,-0.184208991471529,-0.173732024156404,-0.426838827243802
82.7,-0.21226573389339,-0.545183980838829,-0.184324355400058,-0.173479362778729,-0.426571546619072
82.8,-0.212314136432443,-0.544443745650654,-0.184408617391154,-0.173285832167797,-0.42629432640998
82.9,-0.212329990407355,-0.543746835333068,-0.184485595702245,-0.173127203178483,-0.426063059089099
83,-0.212329465421457,-0.543137918643433,-0.184579022630816,-0.172975625855116,-0.425876346848795
83.1,-0.21232814389515,-0.542546408542509,-0.184714377580488,-0.172836714396207,-0.42569465165721
83.2,-0.212326033293328,-0.541962622545285,-0.184898534858123,-0.172716083000264,-0.425521481035312
83.3,-0.212323141080882,-0.541381739336976,-0.185106350116772,-0.172619199051121,-0.425360355747829
83.4,-0.21231767392342,-0.540798937602798,-0.185311143197771,-0.172538984720185,-0.425214796559492
83.5,-0.212195922984589,-0.540210502511013,-0.185491212089242,-0.172468341134281,-0.425089010709983
83.6,-0.211938778949377,-0.539618703943011,-0.185678561207441,-0.172406452935474,-0.424978906677707
83.7,-0.211614549999031,-0.539026907910421,-0.185862322292659,-0.172352504765828,-0.424874953549349
83.8,-0.211291544314795,-0.538438402590331,-0.186014354717163,-0.172305681442704,-0.424767616801821
83.9,-0.211037472627451,-0.537856476159828,-0.186106517853219,-0.17226507372583,-0.424647361912037
84,-0.210843141758479,-0.537286948142381,-0.186143205035945,-0.172229385904245,-0.424507094378052
84.1,-0.210666887699305,-0.536733613363163,-0.186164247771616,-0.172197230025314,-0.424351357064989
84.2,-0.210497314485078,-0.536185291207524,-0.18618266463367,-0.172167218136403,-0.424188158282053
84.3,-0.210323026150946,-0.535630012797733,-0.186211323367971,-0.172137980567284,-0.424025506922089
84.4,-0.210132598963723,-0.535055809256054,-0.186293891073098,-0.172112018877111,-0.423871411877942
84.5,-0.20991557526929,-0.534457101252452,-0.186535246551975,-0.172089494087731,-0.423730925659035
84.6,-0.209680410295483,-0.533845598552835,-0.186849585914104,-0.172066998629113,-0.423598935725302
84.7,-0.209442373529621,-0.533217148130254,-0.18712988267268,-0.172041124931226,-0.423468593093837
84.8,-0.209216734459023,-0.532566121537681,-0.187271906214848,-0.172008458210373,-0.423333054860465
84.9,-0.209018749157042,-0.531886890328089,-0.18732180534678,-0.171962532893636,-0.42318547812101
85,-0.208854213787442,-0.531168322295427,-0.187352224615434,-0.171902950029145,-0.423019728921918
85.1,-0.208709886707979,-0.530397947384852,-0.187383822666635,-0.171834398472359,-0.422838039916173
85.2,-0.20857119126456,-0.529594642709697,-0.187437258146205,-0.171761567078736,-0.422646912176512
85.3,-0.208423550803093,-0.528779419913699,-0.187646181354136,-0.17168914282674,-0.422452859960747
85.4,-0.208252376100606,-0.527973290640597,-0.188118586133377,-0.171609629244045,-0.422262397526689
85.5,-0.208041088414416,-0.527192448613899,-0.188660618807996,-0.171519820177281,-0.422079365300082
85.6,-0.207797104820432,-0.526426207369259,-0.18907262441918,-0.171429918068412,-0.421899735508117
85.7,-0.207540074393755,-0.525663036343002,-0.18920213588491,-0.171350125359406,-0.421719208338677
85.8,-0.207289646209488,-0.524892321622827,-0.189247968645856,-0.171290644492226,-0.421533508059658
85.9,-0.20706546703809,-0.524103449296433,-0.189278048264255,-0.171253061662365,-0.421338358938952
86,-0.206876067357712,-0.523285572655501,-0.189310490748522,-0.171226462680212,-0.421126076142152
86.1,-0.206706669923101,-0.522437571000129,-0.189363458956637,-0.171202783624306,-0.420895802766702
86.2,-0.206541338210107,-0.521572111695237,-0.189467722176877,-0.171173961730312,-0.420658979157228
86.3,-0.206364135694578,-0.520702550104573,-0.189621936171644,-0.171131934233896,-0.420427188255921
86.4,-0.206159125825509,-0.519842241591884,-0.189801404269534,-0.171028044914064,-0.420212013004973
86.5,-0.205913251475925,-0.519004812089069,-0.189981429799144,-0.170848232170473,-0.420024760593704
86.6,-0.205631972597717,-0.518191391991303,-0.190155436823168,-0.170648168247553,-0.419860208919066
86.7,-0.205327087305235,-0.517384845354525,-0.190356420490479,-0.170483601544238,-0.419701164332657
86.8,-0.20501039371283,-0.516567053628692,-0.190554765239541,-0.170410280459456,-0.419530320625254
86.9,-0.204693689934852,-0.515719898263763,-0.190715389544042,-0.170412752093232,-0.419330371587634
87,-0.204364038973375,-0.514823929643737,-0.190805464329341,-0.170419959020049,-0.419077721676067
87.1,-0.204012273535379,-0.513873238487782,-0.190851956585158,-0.170428792828976,-0.418766521065583
87.2,-0.203657708518823,-0.512891318819929,-0.190883537985837,-0.1704364120527,-0.418421603122131
87.3,-0.20331966252305,-0.511903657701798,-0.19091310618916,-0.170439975223908,-0.418068333362048
87.4,-0.203017454147404,-0.510935742195011,-0.190953558852909,-0.170427664130164,-0.417732077301672
87.5,-0.202742351473282,-0.51000967968606,-0.191030166781071,-0.170390675408459,-0.417422458661128
87.6,-0.2024765656742,-0.509117252570981,-0.191190855396782,-0.17033649611707,-0.417118667996656
87.7,-0.202230249966784,-0.508239634666455,-0.191381807023643,-0.170272700602663,-0.416819397377942
87.8,-0.202013577900095,-0.507358651433456,-0.191536551680601,-0.170206863211904,-0.416524119874905
87.9,-0.201836723023196,-0.506456128332955,-0.191589781895434,-0.170130649744681,-0.416232308557459
88,-0.201696091050296,-0.505517407082757,-0.191575993336337,-0.170031417174745,-0.415948207365211
88.1,-0.201575408536603,-0.504551444102086,-0.191549018414726,-0.169922463067468,-0.415676395582467
88.2,-0.201468969611495,-0.503565368669775,-0.191520475071143,-0.169817325767958,-0.415406902657153
88.3,-0.201371092568499,-0.50256467427778,-0.191501981246127,-0.169729543621325,-0.415129324558915
88.4,-0.201276095701141,-0.501554854418057,-0.191542071016567,-0.169663744828623,-0.414833257257399
88.5,-0.201190427393385,-0.500540476371275,-0.191760490801032,-0.169608080924951,-0.414512520412941
88.6,-0.201119191020842,-0.499518851871324,-0.192085716842974,-0.169557255151399,-0.414172529143721
88.7,-0.201049231413661,-0.498486859992494,-0.192427090847867,-0.169506121442015,-0.413814759907814
88.8,-0.200967331956577,-0.497441824111556,-0.192695726772982,-0.169449533730851,-0.413440398677183
88.9,-0.200860276034325,-0.496381067605286,-0.192909869890769,-0.169385451290758,-0.413050631423792
89,-0.200694468642635,-0.495300516876717,-0.193110597241863,-0.169317363125027,-0.412637369725034
89.1,-0.20045355825532,-0.494193998640915,-0.193301184852775,-0.169245775383769,-0.412187984777585
89.2,-0.200164345223896,-0.493069434469228,-0.193484908750017,-0.169171113210138,-0.411720163454788
89.3,-0.199853836491662,-0.491936588520559,-0.193666322912884,-0.169093801747289,-0.41125283689566
89.4,-0.199549039001917,-0.490805224953809,-0.19384805962191,-0.169012773638981,-0.410804936239218
89.5,-0.199225943596244,-0.489684882324375,-0.194022446429662,-0.168926548320567,-0.410392134346725
89.6,-0.198852045442564,-0.488576416271432,-0.194181155901702,-0.16883714049711,-0.410006486715344
89.7,-0.198478156634326,-0.487469898472126,-0.194316137835371,-0.168746640942672,-0.409630129285387
89.8,-0.198155755444136,-0.486354754176992,-0.194439249862396,-0.168657140431317,-0.409245196036997
89.9,-0.197936320144596,-0.485220408636564,-0.194554869083169,-0.168562831238787,-0.408833820950319
90,-0.197821639096301,-0.484056336691243,-0.194654997822524,-0.168456515886244,-0.408381988852582
90.1,-0.197743794767502,-0.482860170259558,-0.194731638405292,-0.168352110123575,-0.407895819868769
90.2,-0.197680946553612,-0.481642370327718,-0.194778462303683,-0.168264070196609,-0.407385056355145
90.3,-0.197611934143482,-0.480414388785279,-0.194805657555796,-0.168206852351171,-0.406859205127692
90.4,-0.197515597225965,-0.479187677521798,-0.194825518454312,-0.168182446708305,-0.406327773002391
90.5,-0.197357907884551,-0.477973494329043,-0.194849109190246,-0.168167871854945,-0.405788511578241
90.6,-0.197128968041496,-0.476773551153516,-0.194887493954609,-0.16815710018671,-0.405222193428277
90.7,-0.196862213335337,-0.475576406672565,-0.195032499860024,-0.168144876781984,-0.404646500160107
90.8,-0.196591519493335,-0.474369693404198,-0.195316077094885,-0.168125946719147,-0.404081375537792
90.9,-0.196350762242747,-0.473141043866428,-0.19562790214904,-0.168082148132912,-0.403546763325397
91,-0.196153651769445,-0.471879912760919,-0.195857377099783,-0.167993715046628,-0.403061041628965
91.1,-0.195974403504426,-0.470593325547632,-0.19590514205503,-0.167883364776509,-0.402618159632388
91.2,-0.195802727768737,-0.469284090739683,-0.195846286573208,-0.167775278325716,-0.402193705009474
91.3,-0.195628774073518,-0.467952305259753,-0.19575152286379,-0.167693636697412,-0.401762863416581
91.4,-0.195442691929913,-0.466598066030521,-0.195660094891361,-0.167649926033502,-0.40130082051007
91.5,-0.195234571465155,-0.465215967565904,-0.195611246620509,-0.167620576829212,-0.400786580412482
91.6,-0.195007140572595,-0.463770474905475,-0.195705376499479,-0.167596588880643,-0.400226673896043
91.7,-0.194773067401738,-0.462289349354493,-0.196007571490635,-0.167570090307215,-0.399637707015257
91.8,-0.194545125976151,-0.460814572148729,-0.196402773403978,-0.167533209228348,-0.399036128448358
91.9,-0.194336090319398,-0.459388124523952,-0.19677259932553,-0.167464308202793,-0.398438386873583
92,-0.194155788372165,-0.458050722285344,-0.196999152417897,-0.167338959245864,-0.39785635227925
92.1,-0.193996717761957,-0.456804819421782,-0.197103547056839,-0.167188374116063,-0.397280519875694
92.2,-0.193845252987896,-0.4556099797476,-0.197176012485927,-0.167046366636651,-0.39670308322493
92.3,-0.193687770852048,-0.454423627867864,-0.197241666031129,-0.166946750630892,-0.396116983495382
92.4,-0.193510648156474,-0.453203188387639,-0.19732562501841,-0.166904073510925,-0.39551516185547
92.5,-0.193297964312801,-0.451907456857341,-0.197463084856323,-0.166876568508405,-0.394888102622146
92.6,-0.193048752451218,-0.450532316518507,-0.197721631655005,-0.166855526123882,-0.394230789231557
92.7,-0.192781765179017,-0.449110321001865,-0.198046067483823,-0.166835317261342,-0.393558059652528
